        s (m)         x (m)         y (m)         z (m)         T (N)       S_n (N)       S_b (N)       u (m/s)       v (m/s)       w (m/s)     phi (rad)   theta (rad)   kappa_2 (-)   kappa_3 (-) 
 0.000000E+00  8.538700E+02  0.000000E+00 -3.200000E+02  7.373796E+05  1.143086E+02 -1.776917E-03  0.000000E+00  0.000000E+00  0.000000E+00  1.577874E+00 -8.899111E-11  0.000000E+00  0.000000E+00
 1.846298E+01  8.353718E+02  2.331579E-10 -3.200605E+02  7.373570E+05 -1.142748E+02  1.776918E-03 -2.776434E-04  9.061754E-03 -1.226915E-08  1.570258E+00  1.141993E-10  2.201057E-11 -8.249795E-04
 3.692597E+01  8.168734E+02 -4.642520E-10 -3.200496E+02  7.373977E+05  1.142077E+02 -1.776921E-03 -5.236921E-04  2.883891E-01  2.493892E-08  1.570161E+00 -1.896016E-10 -5.491977E-11  8.144902E-04
 5.538895E+01  7.983750E+02  6.940810E-10 -3.200465E+02  7.374238E+05 -1.141451E+02  1.776927E-03 -5.214966E-04  1.414363E-01 -3.881416E-08  1.571094E+00  3.148373E-10  1.095630E-10 -7.134790E-04
 7.385193E+01  7.798766E+02 -9.204461E-10 -3.200501E+02  7.374296E+05  1.140876E+02 -1.776939E-03 -6.536198E-04  1.016596E-01  5.417856E-08  1.570883E+00 -4.893960E-10 -1.966815E-10  6.907172E-04
 9.231492E+01  7.613782E+02  1.138080E-09 -3.200489E+02  7.374184E+05 -1.140298E+02  1.776961E-03 -8.164436E-04  2.658800E-01 -7.122816E-08  1.570581E+00  7.119582E-10  3.268180E-10 -7.234781E-04
 1.107728E+02  7.428848E+02 -1.348942E-09 -3.200513E+02  7.373954E+05  1.139675E+02 -1.776996E-03 -7.691369E-04  7.567707E-02  9.090344E-08  1.571274E+00 -9.809228E-10 -5.102496E-10  7.985579E-04
 1.283666E+02  7.252573E+02  1.552829E-09 -3.200373E+02  7.373693E+05 -1.138865E+02  1.777051E-03 -1.042117E-03  1.201211E-01 -1.138104E-07  1.568729E+00  1.310153E-09  7.706906E-10 -1.087901E-03
 1.458771E+02  7.077138E+02 -1.731710E-09 -3.199137E+02  7.374356E+05  1.138414E+02 -1.777131E-03 -2.284287E-03  1.260072E-01  1.394977E-07  1.558772E+00 -1.684586E-09 -1.112742E-09 -4.826962E-05
 1.643147E+02  6.892449E+02  1.879057E-09 -3.195501E+02  7.376835E+05 -1.137771E+02  1.777236E-03 -2.861020E-03 -4.364530E-02 -1.664951E-07  1.543459E+00  2.075508E-09  1.520614E-09 -1.612862E-03
 1.827748E+02  6.707625E+02 -1.989137E-09 -3.188746E+02  7.381328E+05  1.137262E+02 -1.777374E-03 -2.464457E-03  1.266853E-02  1.953804E-07  1.525061E+00 -2.493790E-09 -2.015660E-09 -3.803668E-04
 2.012338E+02  6.522959E+02  2.055706E-09 -3.178732E+02  7.388040E+05 -1.136819E+02  1.777554E-03 -2.351980E-03 -7.920160E-03 -2.256867E-07  1.508184E+00  2.931197E-09  2.603449E-09 -1.448298E-03
 2.196917E+02  6.338506E+02 -2.066022E-09 -3.165507E+02  7.396942E+05  1.136420E+02 -1.777783E-03 -2.187384E-03  9.359953E-03  2.566559E-07  1.490265E+00 -3.376941E-09 -3.286966E-09 -4.932928E-04
 2.381485E+02  6.154320E+02  2.011630E-09 -3.149086E+02  7.408054E+05 -1.136070E+02  1.778069E-03 -1.986967E-03 -1.112419E-02 -2.873207E-07  1.473481E+00  3.817940E-09  4.066612E-09 -1.325417E-03
 2.566042E+02  5.970456E+02 -1.880993E-09 -3.129479E+02  7.421388E+05  1.135764E+02 -1.778419E-03 -1.775113E-03  7.942997E-03  3.164287E-07  1.455646E+00 -4.238947E-09 -4.939715E-09 -6.073475E-04
 2.750589E+02  5.786967E+02  1.662190E-09 -3.106697E+02  7.436978E+05 -1.135504E+02  1.778841E-03 -1.661855E-03 -2.157872E-03 -3.423632E-07  1.438888E+00  4.622174E-09  5.900024E-09 -1.208787E-03
 2.935127E+02  5.603904E+02 -1.342280E-09 -3.080782E+02  7.454789E+05  1.135272E+02 -1.779342E-03 -1.450049E-03 -6.451945E-03  3.632437E-07  1.421442E+00 -4.947145E-09 -6.937139E-09 -6.818944E-04
 3.119654E+02  5.421322E+02  9.114721E-10 -3.051727E+02  7.474819E+05 -1.135062E+02  1.779927E-03 -1.391023E-03  1.434501E-02 -3.769588E-07  1.404531E+00  5.190917E-09  8.035951E-09 -1.151017E-03
 3.304173E+02  5.239266E+02 -3.655697E-10 -3.019588E+02  7.496976E+05  1.134852E+02 -1.780601E-03 -1.196804E-03 -2.138004E-02  3.813097E-07  1.387599E+00 -5.329037E-09 -9.176211E-09 -6.842758E-04
 3.488682E+02  5.057788E+02 -2.930255E-10 -2.984369E+02  7.521256E+05 -1.134637E+02  1.781367E-03 -1.078281E-03  2.530904E-02 -3.739688E-07  1.370625E+00  5.336851E-09  1.033235E-08 -1.155606E-03
 3.673183E+02  4.876933E+02  1.059038E-09 -2.946116E+02  7.547624E+05  1.134402E+02 -1.782223E-03 -8.994254E-04 -2.682187E-02  3.526472E-07  1.354081E+00 -5.190537E-09 -1.147352E-08 -6.378069E-04
 3.857676E+02  4.696748E+02 -1.914258E-09 -2.904855E+02  7.576080E+05 -1.134154E+02  1.783168E-03 -7.152260E-04  2.509205E-02 -3.152278E-07  1.337297E+00  4.868812E-09  1.256401E-08 -1.181647E-03
 4.042161E+02  4.517276E+02  2.832973E-09 -2.860617E+02  7.606631E+05  1.133885E+02 -1.784195E-03 -5.849684E-04 -2.140891E-02  2.600360E-07  1.320941E+00 -4.355144E-09 -1.356397E-08 -5.915620E-04
 4.226639E+02  4.338558E+02 -3.770791E-09 -2.813450E+02  7.639248E+05 -1.133615E+02  1.785296E-03 -3.965608E-04  1.573333E-02 -1.860918E-07  1.304587E+00  3.640586E-09  1.443082E-08 -1.181389E-03
 4.411110E+02  4.160638E+02  4.669820E-09 -2.763373E+02  7.673940E+05  1.133341E+02 -1.786458E-03 -3.300198E-04 -9.438818E-03  9.348238E-08  1.288284E+00 -2.727263E-09 -1.512121E-08 -5.861598E-04
 4.595575E+02  3.983549E+02 -5.454076E-09 -2.710449E+02  7.710650E+05 -1.133087E+02  1.787665E-03 -1.829746E-04  2.667267E-03  1.640972E-08  1.272493E+00  1.631783E-09  1.559383E-08 -1.125886E-03
 4.780033E+02  3.807336E+02  6.032646E-09 -2.654694E+02  7.749378E+05  1.132853E+02 -1.788897E-03 -1.623821E-04  3.461910E-03 -1.403587E-07  1.256224E+00 -3.888225E-10 -1.581291E-08 -6.381232E-04
 4.964487E+02  3.632024E+02 -6.291628E-09 -2.596173E+02  7.790059E+05 -1.132664E+02  1.790133E-03 -6.901570E-05 -8.960320E-03  2.729947E-07  1.241011E+00 -9.447810E-10  1.575263E-08 -1.011370E-03
 5.148935E+02  3.457656E+02  6.112482E-09 -2.534911E+02  7.832680E+05  1.132516E+02 -1.791350E-03 -6.642536E-05  1.307748E-02 -4.064987E-07  1.224851E+00  2.287030E-09 -1.540220E-08 -7.408980E-04
 5.333379E+02  3.284254E+02 -5.365033E-09 -2.470967E+02  7.877185E+05 -1.132431E+02  1.792523E-03 -2.011293E-05 -1.607585E-02  5.303836E-07  1.210151E+00 -3.529011E-09  1.477155E-08 -8.530481E-04
 5.517819E+02  3.111855E+02  3.935189E-09 -2.404375E+02  7.923549E+05  1.132399E+02 -1.793633E-03 -1.634574E-05  1.753102E-02 -6.314983E-07  1.194224E+00  4.535377E-09 -1.389707E-08 -8.740630E-04
 5.702255E+02  2.940482E+02 -1.727842E-09 -2.335187E+02  7.971728E+05 -1.132438E+02  1.794661E-03 -4.747361E-06 -1.790522E-02  6.943249E-07  1.179942E+00 -5.148141E-09  1.284700E-08 -6.746938E-04
 5.886688E+02  2.770162E+02 -1.291723E-09 -2.263450E+02  8.021688E+05  1.132532E+02 -1.795597E-03  6.550634E-06  1.699071E-02 -7.018776E-07  1.164373E+00  5.195268E-09 -1.172536E-08 -1.013539E-03
 6.071118E+02  2.600918E+02  5.081078E-09 -2.189207E+02  8.073398E+05 -1.132697E+02  1.796442E-03 -4.355699E-06 -1.535055E-02  6.369809E-07  1.150420E+00 -4.505567E-09  1.067338E-08 -4.995693E-04
 6.255545E+02  2.432772E+02 -9.471777E-09 -2.112512E+02  8.126813E+05  1.132912E+02 -1.797208E-03  1.229194E-05  1.288391E-02 -4.844762E-07  1.135311E+00  2.930671E-09 -9.866967E-09 -1.138964E-03
 6.439971E+02  2.265746E+02  1.413518E-08 -2.033404E+02  8.181913E+05 -1.133188E+02  1.797924E-03 -1.041671E-05 -1.015911E-02  2.343121E-07  1.121627E+00 -3.760176E-10  9.508374E-09 -3.449720E-04
 6.624395E+02  2.099855E+02 -1.853420E-08 -1.951943E+02  8.238648E+05  1.133504E+02 -1.798636E-03  6.823227E-06  7.097024E-03  1.144295E-07  1.107037E+00 -3.159264E-09 -9.810205E-09 -1.237226E-03
 6.808818E+02  1.935120E+02  2.190222E-08 -1.868164E+02  8.297001E+05 -1.133868E+02  1.799405E-03 -1.835180E-05 -4.205077E-03 -5.487006E-07  1.093596E+00  7.534955E-09  1.096996E-08 -2.204259E-04
 6.993239E+02  1.771550E+02 -2.323306E-08 -1.782127E+02  8.356922E+05  1.134259E+02 -1.800308E-03 -3.779057E-06  1.376242E-03  1.036195E-06  1.079550E+00 -1.241900E-08 -1.313390E-08 -1.302824E-03
 7.177661E+02  1.609165E+02  2.133537E-08 -1.693870E+02  8.418396E+05 -1.134685E+02  1.801429E-03 -2.391585E-05  9.787845E-04 -1.520385E-06  1.066352E+00  1.724157E-08  1.635051E-08 -1.284324E-04
 7.362082E+02  1.447970E+02 -1.495257E-08 -1.603451E+02  8.481373E+05  1.135124E+02 -1.802850E-03 -1.364808E-05 -3.015651E-03  1.917450E-06  1.052846E+00 -2.116796E-08 -2.051593E-08 -1.336339E-03
 7.546503E+02  1.287982E+02  3.023382E-09 -1.510907E+02  8.545832E+05 -1.135587E+02  1.804635E-03 -2.588600E-05  4.431246E-03 -2.117247E-06  1.039910E+00  2.311272E-08  2.531806E-08 -6.644604E-05
 7.730924E+02  1.129204E+02  1.491338E-08 -1.416295E+02  8.611728E+05  1.136051E+02 -1.806815E-03 -2.288137E-05 -5.429366E-03  1.991458E-06  1.026920E+00 -2.182577E-08 -3.019153E-08 -1.342279E-03
 7.915346E+02  9.716488E+01 -3.807972E-08 -1.319654E+02  8.679036E+05 -1.136529E+02  1.809360E-03 -3.000144E-05  5.803480E-03 -1.413476E-06  1.014276E+00  1.609140E-08  3.430353E-08 -2.900475E-05
 8.099768E+02  8.153174E+01  6.362389E-08 -1.221037E+02  8.747716E+05  1.136999E+02 -1.812165E-03 -3.592137E-05 -5.783667E-03  2.949517E-07  1.001771E+00 -5.086757E-09 -3.660023E-08 -1.327107E-03
 8.284192E+02  6.602186E+01 -8.559629E-08 -1.120484E+02  8.817744E+05 -1.137477E+02  1.815036E-03 -3.821263E-05  5.227150E-03  1.356261E-06  9.894458E-01 -1.105861E-08  3.595261E-08 -9.495903E-06
 8.468617E+02  5.063530E+01  9.401463E-08 -1.018046E+02  8.889085E+05  1.137940E+02 -1.817693E-03 -4.861942E-05 -4.352220E-03 -3.355091E-06  9.773923E-01  3.049140E-08 -3.144670E-08 -1.297647E-03
 8.653043E+02  3.537255E+01 -7.450627E-08 -9.137637E+01  8.961709E+05 -1.138406E+02  1.819813E-03 -4.601615E-05  3.055044E-03  5.241958E-06  9.654114E-01 -4.872346E-08  2.285629E-08 -1.622083E-06
 8.837471E+02  2.023354E+01  9.725916E-09 -8.076834E+01  9.035578E+05  1.138856E+02 -1.821106E-03 -6.329492E-05 -1.581686E-03 -6.195159E-06  9.537792E-01  5.783552E-08 -1.130067E-08 -1.259808E-03
 9.022000E+02  5.210367E+00  1.152016E-07 -6.997887E+01  9.110700E+05 -1.139304E+02  1.821461E-03 -6.913774E-05  9.084546E-05  5.019110E-06  9.421557E-01 -4.642957E-08  2.081992E-31 -5.932902E-29
